wavenumber,intensity
473.498317310172,0.986939450137
474.236434000792,0.996722695083
474.974550691411,1.006505940030
475.712667382031,1.016289184977
476.450784072651,1.026072429923
477.188900763271,1.035855674870
477.927017453890,1.045638919817
478.665134144510,1.055422164764
479.403250835130,1.067602648826
480.141367525750,1.076268527744
480.879484216370,1.085978809733
481.617600906989,1.102519222605
482.355717597609,1.122016444011
483.093834288229,1.142817643031
483.831950978849,1.166459760882
484.570067669468,1.191328332171
485.308184360088,1.218941548477
486.046301050708,1.250510734215
486.784417741328,1.284369109707
487.522534431948,1.320557648925
488.260651122567,1.359156375414
488.998767813187,1.402879739441
489.736884503807,1.444845284415
490.475001194427,1.487704592608
491.213117885046,1.532795063626
491.951234575666,1.575110460272
492.689351266286,1.613995829988
493.427467956906,1.652775672053
494.165584647525,1.689713297485
494.903701338145,1.723009244113
495.641818028765,1.751986221725
496.379934719385,1.772894753585
497.118051410005,1.783090725695
497.856168100624,1.787359075749
498.594284791244,1.787660568276
499.332401481864,1.783744199422
500.070518172484,1.769544157058
500.808634863103,1.753140610363
501.546751553723,1.733152153756
502.284868244343,1.708037075247
503.022984934963,1.682009488748
503.761101625583,1.651975576338
504.499218316202,1.617244760652
505.237335006822,1.580430060153
505.975451697442,1.540778647904
506.713568388062,1.500125787875
507.451685078681,1.460705539917
508.189801769301,1.427162022207
508.927918459921,1.396666644581
509.666035150541,1.366623380796
510.404151841160,1.336140717606
511.142268531780,1.307632563391
511.880385222400,1.280687761156
512.618501913020,1.257442890986
513.356618603640,1.235744439078
514.094735294259,1.214573106525
514.832851984879,1.193787693690
515.570968675499,1.177643951167
516.309085366119,1.162573165531
517.047202056738,1.148874641740
517.785318747358,1.140512678393
518.523435437978,1.135437312045
519.261552128598,1.130798081022
519.999668819218,1.126791386894
520.737785509837,1.121407050973
521.475902200457,1.117004335151
522.214018891077,1.115901890509
522.952135581697,1.118784355500
523.690252272316,1.117135466549
524.428368962936,1.115862108481
525.166485653556,1.118709331878
525.904602344176,1.125641170498
526.642719034795,1.128755393699
527.380835725415,1.130006950863
528.118952416035,1.130407633592
528.857069106655,1.129092849351
529.595185797275,1.127909229171
530.333302487894,1.126656964882
531.071419178514,1.125955004967
531.809535869134,1.124611032498
532.547652559754,1.120584153210
533.285769250373,1.114035109532
534.023885940993,1.104652461803
534.762002631613,1.097312485441
535.500119322233,1.088703997948
536.238236012852,1.076032632696
536.976352703472,1.061427441341
537.714469394092,1.047462112224
538.452586084712,1.034086922636
539.190702775332,1.025024635442
539.928819465951,1.015921356468
540.666936156571,1.005305668846
541.405052847191,0.991191990691
542.143169537811,0.976522177426
542.881286228430,0.964414070073
543.619402919050,0.954004991268
544.357519609670,0.944545618073
545.095636300290,0.935905947277
545.833752990909,0.927016450838
546.571869681529,0.916360085841
547.309986372149,0.907309014426
548.048103062769,0.898224088928
548.786219753389,0.889971063430
549.524336444008,0.881828281819
550.262453134628,0.873660770531
551.000569825248,0.864375231242
551.738686515868,0.854455855315
552.476803206487,0.850328108684
553.214919897107,0.845120093186
553.953036587727,0.837764818062
554.691153278347,0.827377573595
555.429269968967,0.822792423013
556.167386659586,0.817625934202
556.905503350206,0.812227865223
557.643620040826,0.811287858173
558.381736731446,0.810420968169
559.119853422065,0.811331975146
559.857970112685,0.815224472126
560.596086803305,0.818849515286
561.334203493925,0.819954276780
562.072320184545,0.821789296714
562.810436875164,0.825497476269
563.548553565784,0.827201227664
564.286670256404,0.829346934176
565.024786947024,0.833017157613
565.762903637643,0.837559537230
566.501020328263,0.837540686009
567.239137018883,0.839611651547
567.977253709503,0.845219481001
568.715370400122,0.849749424098
569.453487090742,0.853956810149
570.191603781362,0.856887805763
570.929720471982,0.859071372285
571.667837162602,0.863900663292
572.405953853221,0.868266645266
573.144070543841,0.872255112670
573.882187234461,0.877991898638
574.620303925081,0.884640116961
575.358420615700,0.891912889481
576.096537306320,0.900090390618
576.834653996940,0.910157897013
577.572770687560,0.920021330352
578.310887378179,0.929932767232
579.049004068799,0.940573717425
579.787120759419,0.953373338089
580.525237450039,0.969817328806
581.263354140659,0.988137886377
582.001470831278,1.004868608037
582.739587521898,1.022768112153
583.477704212518,1.045852787054
584.215820903138,1.073489508862
584.953937593757,1.098495811477
585.692054284377,1.123980546745
586.430170974997,1.148320494500
587.168287665617,1.170990342898
587.906404356237,1.198526552361
588.644521046856,1.226630269023
589.382637737476,1.252355433938
590.120754428096,1.273111114912
590.858871118716,1.287568334634
591.596987809335,1.297270052394
592.335104499955,1.304214210888
593.073221190575,1.310517089265
593.811337881195,1.312618685726
594.549454571815,1.307888568257
595.287571262434,1.296553404605
596.025687953054,1.283332298490
596.763804643674,1.269364048565
597.501921334294,1.254064002864
598.240038024913,1.236392274751
598.978154715533,1.215561092401
599.716271406153,1.190606952755
600.454388096773,1.164299765758
601.192504787392,1.140379523255
601.930621478012,1.115864623112
602.668738168632,1.091314168388
603.406854859252,1.069108822230
604.144971549872,1.053370481166
604.883088240491,1.037335116901
605.621204931111,1.023503205451
606.359321621731,1.011783337288
607.097438312351,0.997947399229
607.835555002970,0.987052645337
608.573671693590,0.979736002944
609.311788384210,0.976131842877
610.049905074830,0.973224176934
610.788021765449,0.976157919004
611.526138456069,0.982162637381
612.264255146689,0.987244111857
613.002371837309,0.998922291583
613.740488527929,1.010435276533
614.478605218548,1.019304555241
615.216721909168,1.024885649037
615.954838599788,1.039445513671
616.692955290408,1.056977092027
617.431071981027,1.076991564264
618.169188671647,1.106042335144
618.907305362267,1.132441599003
619.645422052887,1.158377413760
620.383538743507,1.187282749557
621.121655434126,1.220824683539
621.859772124746,1.255974642709
622.597888815366,1.292145878093
623.336005505986,1.331515859331
624.074122196605,1.378490839068
624.812238887225,1.427890024729
625.550355577845,1.481230376945
626.288472268465,1.539268995736
627.026588959085,1.598142698495
627.764705649704,1.661663834687
628.502822340324,1.729220636583
629.240939030944,1.797383060502
629.979055721564,1.869457173154
630.717172412183,1.941301777848
631.455289102803,2.010177668117
632.193405793423,2.072841271768
632.931522484043,2.135395748905
633.669639174662,2.196622843344
634.407755865282,2.257020391516
635.145872555902,2.313654753409
635.883989246522,2.367143899429
636.622105937141,2.416846294884
637.360222627761,2.458840411983
638.098339318381,2.490809734183
638.836456009001,2.507882106125
639.574572699621,2.515751282591
640.312689390240,2.518962024617
641.050806080860,2.515589517287
641.788922771480,2.502232055911
642.527039462100,2.482877797275
643.265156152719,2.460437084238
644.003272843339,2.430838151820
644.741389533959,2.394985618138
645.479506224579,2.352164562051
646.217622915198,2.297949338048
646.955739605818,2.238531024441
647.693856296438,2.179633796861
648.431972987058,2.117644167094
649.170089677678,2.050283299719
649.908206368297,1.988249127096
650.646323058917,1.923807305342
651.384439749537,1.857643952684
652.122556440157,1.795808553873
652.860673130776,1.734453114892
653.598789821396,1.674084786002
654.336906512016,1.613834377751
655.075023202636,1.554351331667
655.813139893256,1.497754723364
656.551256583875,1.444862847458
657.289373274495,1.395416593771
658.027489965115,1.350358683500
658.765606655735,1.307591307654
659.503723346354,1.266078173255
660.241840036974,1.231106255509
660.979956727594,1.200127533999
661.718073418214,1.171196246446
662.456190108834,1.142806451792
663.194306799453,1.110299601831
663.932423490073,1.083436310058
664.670540180693,1.066277955513
665.408656871313,1.051870575559
666.146773561932,1.036305186261
666.884890252552,1.021275000509
667.623006943172,1.006031649717
668.361123633792,0.992187235684
669.099240324412,0.981730061245
669.837357015031,0.970404089137
670.575473705651,0.958416018496
671.313590396271,0.947730637277
672.051707086891,0.935729651136
672.789823777510,0.927327339218
673.527940468130,0.916257569991
674.266057158750,0.905861039851
675.004173849370,0.899178098999
675.742290539989,0.885926526767
676.480407230609,0.877547746420
677.218523921229,0.871433479906
677.956640611849,0.864326283699
678.694757302469,0.859844747080
679.432873993088,0.859028974402
680.170990683708,0.856269622281
680.909107374328,0.849714487134
681.647224064948,0.850756719337
682.385340755567,0.849990374899
683.123457446187,0.846517526686
683.861574136807,0.841454888704
684.599690827427,0.839699763580
685.337807518046,0.838692674822
686.075924208666,0.835318899291
686.814040899286,0.834479006626
687.552157589906,0.837771977586
688.290274280526,0.837050118643
689.028390971145,0.833815931810
689.766507661765,0.826752800083
690.504624352385,0.819002770238
691.242741043005,0.809308048975
691.980857733624,0.800573505070
692.718974424244,0.788143458102
693.457091114864,0.780774745161
694.195207805484,0.773576930401
694.933324496104,0.766923391327
695.671441186723,0.759741054157
696.409557877343,0.748039791208
697.147674567963,0.735828062187
697.885791258583,0.722702699353
698.623907949202,0.700985366738
699.362024639822,0.683479226205
700.100141330442,0.674936442760
700.838258021062,0.668790953692
701.576374711681,0.658173262637
702.314491402301,0.650994043217
703.052608092921,0.648241917794
703.790724783541,0.643525914226
704.528841474161,0.633889611782
705.266958164780,0.624842468037
706.005074855400,0.620028656995
706.743191546020,0.616728088766
707.481308236640,0.616444906310
708.219424927259,0.616919422820
708.957541617879,0.620450023699
709.695658308499,0.624996973351
710.433774999119,0.630301305950
711.171891689738,0.632503921157
711.910008380358,0.633790813081
712.648125070978,0.635213740127
713.386241761598,0.637647823083
714.124358452218,0.641719913579
714.862475142837,0.645129499863
715.600591833457,0.654589042545
716.338708524077,0.667345604003
717.076825214697,0.674630153652
717.814941905316,0.680220648080
718.553058595936,0.690280334084
719.291175286556,0.702998379441
720.029291977176,0.711584235737
720.767408667796,0.717030576566
721.505525358415,0.721839453899
722.243642049035,0.725947558441
722.981758739655,0.732201768350
723.719875430275,0.744368299465
724.457992120894,0.752557395846
725.196108811514,0.752533702856
725.934225502134,0.751829018034
726.672342192754,0.747430297463
727.410458883374,0.744312895499
728.148575573993,0.741661411209
728.886692264613,0.737235061902
729.624808955233,0.730357948551
730.362925645853,0.719316697304
731.101042336472,0.709621939220
731.839159027092,0.701690583827
732.577275717712,0.691182639884
733.315392408332,0.682412094333
734.053509098952,0.671087249452
734.791625789571,0.653417107670
735.529742480191,0.637944799125
736.267859170811,0.625982463175
737.005975861431,0.616259963618
737.744092552050,0.607131845975
738.482209242670,0.596040147830
739.220325933290,0.588040241214
739.958442623910,0.582916944067
740.696559314529,0.576318506874
741.434676005149,0.571972385001
742.172792695769,0.567932605687
742.910909386389,0.563305509143
743.649026077009,0.561963657555
744.387142767628,0.558634409222
745.125259458248,0.550397798008
745.863376148868,0.549295357474
746.601492839487,0.550693046396
747.339609530107,0.551530895112
748.077726220727,0.551916758951
748.815842911347,0.553149320927
749.553959601967,0.553834636929
750.292076292586,0.552483093237
751.030192983206,0.549842234627
751.768309673826,0.549633066887
752.506426364446,0.552708202968
753.244543055066,0.555138586507
753.982659745685,0.554552953511
754.720776436305,0.557407902928
755.458893126925,0.558522977004
756.197009817545,0.564836268070
756.935126508164,0.566099976019
757.673243198784,0.565406286115
758.411359889404,0.567236867294
759.149476580024,0.572468069408
759.887593270643,0.579658318858
760.625709961263,0.589384189177
761.363826651883,0.597940659383
762.101943342503,0.606198553930
762.840060033123,0.611001185950
763.578176723742,0.611792001071
764.316293414362,0.612824080387
765.054410104982,0.618516558398
765.792526795602,0.619809916308
766.530643486221,0.620970431613
767.268760176841,0.620108336796
768.006876867461,0.620065622384
768.744993558081,0.621185310654
769.483110248701,0.620648624326
770.221226939320,0.616535312630
770.959343629940,0.607521984645
771.697460320560,0.593414503021
772.435577011180,0.578477912067
773.173693701799,0.562148420106
773.911810392419,0.546453001403
774.649927083039,0.532550718357
775.388043773659,0.518462557649
776.126160464278,0.501106799487
776.864277154898,0.486030884135
777.602393845518,0.471874861127
778.340510536138,0.460166896423
779.078627226758,0.446946606023
779.816743917377,0.430567443194
780.554860607997,0.417917056410
781.292977298617,0.406996292841
782.031093989237,0.396032540793
782.769210679856,0.384293994528
783.507327370476,0.376055515136
784.245444061096,0.370977477012
784.983560751716,0.365815756669
785.721677442335,0.358609781813
786.459794132955,0.353915743291
787.197910823575,0.352968919383
787.936027514195,0.350944869183
788.674144204815,0.351200784771
789.412260895434,0.354643240929
790.150377586054,0.357955064622
790.888494276674,0.360403293378
791.626610967294,0.357344957556
792.364727657913,0.356891690901
793.102844348533,0.358883767444
793.840961039153,0.364168884314
794.579077729773,0.369388393922
795.317194420393,0.375843209473
796.055311111012,0.383373723142
796.793427801632,0.392796756512
797.531544492252,0.402384009903
798.269661182872,0.413195451000
799.007777873491,0.423586858225
799.745894564111,0.436121108934
800.484011254731,0.451510967748
801.222127945351,0.470591140278
801.960244635970,0.490950637113
802.698361326590,0.512864151788
803.436478017210,0.531830783800
804.174594707830,0.553020038091
804.912711398450,0.576809510370
805.650828089069,0.596606598334
806.388944779689,0.617679704657
807.127061470309,0.640978173119
807.865178160929,0.665568751504
808.603294851549,0.689346683282
809.341411542168,0.707727147491
810.079528232788,0.724907936724
810.817644923408,0.740256486979
811.555761614027,0.752707213372
812.293878304647,0.760100038871
813.031994995267,0.766390988374
813.770111685887,0.769227444399
814.508228376507,0.769169683445
815.246345067126,0.766473898464
815.984461757746,0.760353698130
816.722578448366,0.752701180124
817.460695138986,0.739508037755
818.198811829605,0.723797104544
818.936928520225,0.702113093256
819.675045210845,0.679920797418
820.413161901465,0.658807081410
821.151278592085,0.634559684766
821.889395282704,0.605886254727
822.627511973324,0.577946308795
823.365628663944,0.553211079508
824.103745354564,0.531980645923
824.841862045183,0.514582272436
825.579978735803,0.495746875301
826.318095426423,0.474969769813
827.056212117043,0.453294334686
827.794328807663,0.434430627406
828.532445498282,0.415305301512
829.270562188902,0.393047681538
830.008678879522,0.375912852343
830.746795570142,0.360265173852
831.484912260761,0.347788800801
832.223028951381,0.337280271780
832.961145642001,0.334647940502
833.699262332621,0.326888366730
834.437379023241,0.314454284792
835.175495713860,0.304105194362
835.913612404480,0.291559530227
836.651729095100,0.282714946368
837.389845785720,0.276108215979
838.127962476339,0.271342111473
838.866079166959,0.269026947215
839.604195857579,0.269342201537
840.342312548199,0.270003069311
841.080429238818,0.267800461228
841.818545929438,0.265375049764
842.556662620058,0.263683666428
843.294779310678,0.264987062104
844.032896001298,0.260188119601
844.771012691917,0.255921672087
845.509129382537,0.257117069118
846.247246073157,0.256091756358
846.985362763777,0.256353135150
847.723479454396,0.256971718736
848.461596145016,0.258330907515
849.199712835636,0.257320131046
849.937829526256,0.256025515249
850.675946216875,0.255518434817
851.414062907495,0.258501488597
852.152179598115,0.265336463782
852.890296288735,0.269722066139
853.628412979355,0.270052502417
854.366529669974,0.269805710131
855.104646360594,0.273761612229
855.842763051214,0.279435597555
856.580879741834,0.281666064894
857.318996432453,0.284563322906
858.057113123073,0.288433658157
858.795229813693,0.289219089052
859.533346504313,0.286003127873
860.271463194932,0.286048470772
861.009579885552,0.289448497316
861.747696576172,0.295090722959
862.485813266792,0.297162715987
863.223929957412,0.299037915637
863.962046648031,0.303529819444
864.700163338651,0.311404195718
865.438280029271,0.318995551680
866.176396719891,0.323918692807
866.914513410510,0.332832718366
867.652630101130,0.343229016475
868.390746791750,0.351630560844
869.128863482370,0.360732354393
869.866980172990,0.369143829560
870.605096863609,0.380152658222
871.343213554229,0.391952242034
872.081330244849,0.402735631443
872.819446935469,0.412042518082
873.557563626088,0.426080826316
874.295680316708,0.439480215537
875.033797007328,0.451671653832
875.771913697948,0.463297952499
876.510030388567,0.474931286260
877.248147079187,0.487188723107
877.986263769807,0.496030922249
878.724380460427,0.507081897163
879.462497151047,0.521805793485
880.200613841666,0.534015741488
880.938730532286,0.549234187979
881.676847222906,0.567031413327
882.414963913526,0.583783404559
883.153080604145,0.595394866964
883.891197294765,0.609988453320
884.629313985385,0.625270707649
885.367430676005,0.639280499303
886.105547366624,0.650704099472
886.843664057244,0.659999609742
887.581780747864,0.669387858029
888.319897438484,0.676196315504
889.058014129104,0.680428937947
889.796130819723,0.681158343275
890.534247510343,0.678643887739
891.272364200963,0.672794436879
892.010480891583,0.669759361044
892.748597582202,0.665873665257
893.486714272822,0.657544548829
894.224830963442,0.643798646872
894.962947654062,0.629722912949
895.701064344682,0.610426564004
896.439181035301,0.590782002319
897.177297725921,0.577438936909
897.915414416541,0.560711885293
898.653531107161,0.537619692100
899.391647797780,0.514560634117
900.129764488400,0.494570967096
900.867881179020,0.476557839834
901.605997869640,0.454463276229
902.344114560260,0.440301312815
903.082231250879,0.431073293954
903.820347941499,0.423035062411
904.558464632119,0.409986702985
905.296581322739,0.399984997032
906.034698013358,0.385606710867
906.772814703978,0.373084687782
907.510931394598,0.359555347653
908.249048085218,0.340519619684
908.987164775838,0.329395755406
909.725281466457,0.323471159477
910.463398157077,0.317976075293
911.201514847697,0.310606957904
911.939631538317,0.301673837850
912.677748228936,0.301553189724
913.415864919556,0.299600364737
914.153981610176,0.288763169089
914.892098300796,0.271811418844
915.630214991415,0.260764680295
916.368331682035,0.262159146180
917.106448372655,0.264456368876
917.844565063275,0.263954424595
918.582681753895,0.261657489563
919.320798444514,0.262583811592
920.058915135134,0.260431518924
920.797031825754,0.260969997956
921.535148516374,0.264094008452
922.273265206993,0.268103093995
923.011381897613,0.271907116302
923.749498588233,0.270839797603
924.487615278853,0.269019191599
925.225731969472,0.268460209177
925.963848660092,0.269664780844
926.701965350712,0.272495239063
927.440082041332,0.272110717874
928.178198731952,0.268384187772
928.916315422571,0.266045013880
929.654432113191,0.268288235288
930.392548803811,0.270121906695
931.130665494431,0.273427969305
931.868782185050,0.275556613465
932.606898875670,0.273965380867
933.345015566290,0.270786749541
